"Node count","Average node count after compression","Average height of a tree","Average height after compression","Average DFS time","Average DFS time after compression","Average BFS time","Average BFS time after compression","Average distance calculation time","Average distance calculation time after compression","Average height calculation time","Average height calculation time after compression","Average perimeter calculation time","Average perimeter calculation time after compression","Average compression time","Average hld time","Average hld distance calculation time (ms)"
100,74.85,9.45,7.55,1.64131e-05,1.23019e-05,0,0,1.69315e-05,1.23686e-05,1.72173e-05,1.32325e-05,0,0,0.000178125,1.55379e-05,0.00044027
200,149.5,11.09,9.35,3.81176e-05,2.81794e-05,0,0,4.05218e-05,2.95324e-05,3.86792e-05,3.11204e-05,0,0,0.000433913,3.39846e-05,0.00047045
300,224.99,12.03,10.2,5.29122e-05,3.72662e-05,0,0,5.17204e-05,3.94148e-05,5.19427e-05,3.97118e-05,0,0,0.000529043,5.79568e-05,0.00046899
400,299.77,12.56,10.87,6.04555e-05,4.45122e-05,0,0,6.0382e-05,4.66184e-05,6.28833e-05,4.85154e-05,0,0,0.000642175,6.90349e-05,0.00036802
500,374.97,13.38,11.5,7.93034e-05,5.76499e-05,0,0,7.74825e-05,6.10065e-05,8.21966e-05,6.26726e-05,0,0,0.000807508,8.75858e-05,0.00042777
600,449.99,13.58,11.84,9.46626e-05,6.91433e-05,0,0,9.60361e-05,7.37558e-05,9.78836e-05,7.47384e-05,0,0,0.000971353,0.000106741,0.00043725
700,525.97,14.24,12.5,0.000107685,8.06618e-05,0,0,0.000108691,8.37667e-05,0.000112046,8.6045e-05,0,0,0.00113627,0.000122503,0.00053864
800,599.43,14.34,12.52,0.00012437,9.25378e-05,0,0,0.000127363,9.81901e-05,0.000135446,0.000101658,0,0,0.00136495,0.000147963,0.00048283
900,674.73,14.61,12.63,0.000136589,0.000100555,0,0,0.000138832,0.000106732,0.000141014,0.000109553,0,0,0.00144095,0.000155142,0.00043477
1000,747.92,14.74,12.94,0.000156812,0.000116395,0,0,0.000160483,0.000124343,0.000165577,0.000125867,0,0,0.00164419,0.000177613,0.00047764
1100,825.6,15.21,13.14,0.000168249,0.000122574,0,0,0.000171183,0.00012957,0.000174657,0.000132749,0,0,0.00174153,0.000189035,0.00045784
1200,899.91,15.69,13.73,0.000182027,0.000133156,0,0,0.00018304,0.000142365,0.000187937,0.00014184,0,0,0.00184409,0.000202282,0.00044011
1300,975.21,15.52,13.51,0.000191991,0.000142526,0,0,0.00019595,0.000151585,0.000202201,0.000153689,0,0,0.00195278,0.000218517,0.00041797
1400,1048.83,16.11,14.15,0.000210433,0.000157261,0,0,0.000214512,0.000162895,0.000223084,0.000167828,0,0,0.00221856,0.000222212,0.00046298
1500,1123.08,15.96,13.92,0.000225375,0.00016304,0,0,0.000227935,0.000173193,0.000233753,0.000177467,0,0,0.00235918,0.000249075,0.00041812
1600,1200.54,16,14.19,0.000243026,0.000178964,0,0,0.000251251,0.000187386,0.000251208,0.000190975,0,0,0.00254519,0.000271941,0.00053428
1700,1273.96,16.29,14.3,0.000254827,0.000185501,0,0,0.000257903,0.000197589,0.000265628,0.000200148,0,0,0.00267234,0.000265631,0.00048004
1800,1351.12,16.27,14.45,0.000278913,0.000202513,0,0,0.000279517,0.000208131,0.000283531,0.000218206,0,0,0.00287966,0.000284105,0.00050605
1900,1422.87,16.67,14.7,0.00028206,0.000204992,0,0,0.000289692,0.000218633,0.000295342,0.000224287,0,0,0.00296843,0.000276263,0.00049247
2000,1501.33,16.47,14.57,0.000297983,0.000215014,0,0,0.000307409,0.000229836,0.000311927,0.000238609,0,0,0.00312879,0.000280203,0.00049132
2100,1573.24,16.88,15.07,0.000313839,0.000230446,0,0,0.000325005,0.000245395,0.000335293,0.00025325,0,0,0.00330693,0.00035041,0.00061149
2200,1653.11,16.89,15,0.000349693,0.000262635,0,0,0.000364946,0.000274275,0.000376036,0.000283588,0,0,0.00377088,0.000328251,0.00083914
2300,1723.56,17.18,15.23,0.000365638,0.000260763,0,0,0.000366872,0.00028332,0.000379271,0.000288462,0,0,0.00385388,0.000322381,0.00058852
2400,1802.35,16.98,15.13,0.000373049,0.000268184,0,0,0.000374324,0.000287539,0.000387855,0.000291661,0,0,0.00390505,0.000334106,0.00066878
2500,1874.64,17.18,15.28,0.00039243,0.000291408,0,0,0.000406226,0.000310409,0.000426369,0.000317854,0,0,0.00417808,0.000355657,0.00062069
2600,1953.39,17.23,15.14,0.000428224,0.000314491,0,0,0.000440494,0.000340313,0.000445523,0.000334298,0,0,0.00447573,0.000409574,0.00075916
2700,2022.13,17.38,15.35,0.000441676,0.000325567,0,0,0.000444923,0.000331814,0.000464732,0.000339636,0,0,0.00455755,0.000402767,0.00064184
2800,2094.85,17.36,15.51,0.000443995,0.000321323,0,0,0.000457216,0.000343476,0.000472813,0.000354592,0,0,0.00473452,0.000401084,0.00063474
2900,2173.95,17.41,15.37,0.000452723,0.000334849,0,0,0.000466769,0.000355455,0.000472838,0.000362478,0,0,0.00483426,0.000418648,0.00071504
3000,2249.04,17.86,15.79,0.000465783,0.000331366,0,0,0.000469929,0.000356716,0.000483486,0.000362819,0,0,0.00492255,0.000422096,0.0008487
3100,2326.45,17.95,15.95,0.000490241,0.000347123,0,0,0.000494443,0.000367491,0.000510903,0.000377766,0,0,0.00509441,0.000434488,0.00077606
3200,2400.88,17.96,15.96,0.000492054,0.000353323,0,0,0.000502174,0.000373797,0.00051216,0.000387904,0,0,0.00525863,0.00044277,0.00055705
3300,2476.48,17.83,15.84,0.000529171,0.000396073,0,0,0.000555978,0.000422264,0.000563462,0.000424126,0,0,0.00569058,0.000495174,0.00072875
3400,2549.42,17.91,16.14,0.000526607,0.000376199,0,0,0.000539103,0.000411368,0.00055028,0.000413579,0,0,0.00558473,0.000483563,0.00072216
3500,2626.84,17.91,16.12,0.000548516,0.000394928,0,0,0.000566944,0.000422835,0.000584685,0.000434153,0,0,0.00574909,0.000490592,0.00071927
3600,2700.55,17.9,16.19,0.000562757,0.000408114,0,0,0.000583742,0.000435797,0.000596927,0.000446756,0,0,0.00594428,0.000517393,0.00073363
3700,2775.09,18.01,16.07,0.000595694,0.000427857,0,0,0.000606867,0.000453123,0.000619327,0.00046713,0,0,0.00616757,0.000545723,0.0006241
3800,2853.99,18.12,16.16,0.000576185,0.00041261,0,0,0.00058054,0.000439144,0.000603706,0.000448749,0,0,0.00596694,0.000511529,0.00057256
3900,2926.08,18.55,16.62,0.000594035,0.000427772,0,0,0.000605626,0.000451026,0.000619314,0.000459905,0,0,0.00616052,0.000525951,0.00054169
4000,2998.72,18.25,16.34,0.000603662,0.000433398,0,0,0.000621856,0.00045343,0.000631029,0.000474784,0,0,0.00629321,0.000548069,0.00055659
4100,3070.27,18.45,16.59,0.000618712,0.000446448,0,0,0.000632029,0.00047399,0.000658616,0.000486275,0,0,0.00645361,0.00056386,0.00056835
4200,3148.85,18.7,16.66,0.000643884,0.000462813,0,0,0.00065612,0.00048572,0.000664455,0.000498143,0,0,0.00658152,0.00057096,0.00054045
4300,3221.67,18.62,16.63,0.000651353,0.000471596,0,0,0.000668513,0.000498122,0.000682351,0.000508189,0,0,0.00672185,0.000588633,0.00066181
4400,3299.49,18.55,16.61,0.000663399,0.000478169,0,0,0.000681146,0.000511147,0.000696639,0.000519555,0,0,0.00681173,0.000598661,0.00058171
4500,3372.83,18.63,16.7,0.000674805,0.000487079,0,0,0.000694111,0.000515423,0.000707322,0.000528513,0,0,0.00695278,0.000605744,0.00055836
4600,3443.59,18.48,16.48,0.000696075,0.000501532,0,0,0.000724375,0.000526864,0.000730518,0.000542094,0,0,0.00717244,0.000629481,0.00057171
4700,3525.91,18.78,16.93,0.000716698,0.000515872,0,0,0.00073642,0.000543293,0.000749629,0.000560513,0,0,0.00732173,0.000644382,0.00056509
4800,3598.9,18.81,16.86,0.000739748,0.00052499,0,0,0.000755847,0.000556518,0.00077412,0.000570969,0,0,0.00746903,0.000675064,0.00061653
4900,3675.6,19.15,17.11,0.000741932,0.000526375,0,0,0.0007562,0.000567074,0.000772022,0.00058006,0,0,0.00758466,0.000675911,0.00068193
5000,3753.84,18.74,16.79,0.000797216,0.00057146,0,0,0.000822633,0.000613661,0.000829847,0.000618144,0,0,0.00826904,0.000801603,0.00075527
5100,3824.82,18.78,16.94,0.000802053,0.00057286,0,0,0.000824114,0.000611314,0.000839873,0.000623679,0,0,0.0081678,0.000724483,0.00064771
5200,3900.45,18.88,16.92,0.00082896,0.00059712,0,0,0.000853877,0.0006347,0.000868119,0.00064354,0,0,0.00839616,0.000756783,0.00066823
5300,3974.09,18.84,16.97,0.000822681,0.000596667,0,0,0.000849039,0.000619752,0.000858042,0.000637721,0,0,0.00833652,0.000751597,0.00065082
5400,4053.52,19.03,17.29,0.000827913,0.000603293,0,0,0.000852281,0.000639117,0.000881123,0.000652243,0,0,0.00844154,0.000770351,0.00064052
5500,4127.4,19.09,17.11,0.000838922,0.000604386,0,0,0.000861081,0.000640912,0.000877854,0.000649195,0,0,0.00870045,0.000756663,0.00061222
5600,4204.22,19.06,17.03,0.000870599,0.000618579,0,0,0.000883348,0.000657999,0.000895451,0.000665273,0,0,0.00898256,0.0008278,0.00075629
5700,4280.98,19.22,17.3,0.000861984,0.00061809,0,0,0.000885818,0.000655783,0.000901225,0.000667262,0,0,0.00894772,0.000779872,0.00060078
5800,4354.35,19.32,17.48,0.000887985,0.000632854,0,0,0.00091486,0.000677266,0.000930261,0.000689118,0,0,0.0091837,0.000808779,0.00065579
5900,4425.81,19.19,17.32,0.00090796,0.000643307,0,0,0.000924374,0.000674981,0.000938059,0.000699145,0,0,0.00933851,0.000845791,0.00064988
6000,4498.26,19.45,17.34,0.000955791,0.000675984,0,0,0.000969675,0.000726361,0.00100104,0.000744572,0,0,0.00982904,0.000932234,0.00084346
6100,4574.3,19.42,17.51,0.000933484,0.000669994,0,0,0.00095982,0.000716636,0.000973043,0.000719597,0,0,0.00954424,0.000839933,0.00062077
6200,4647.75,19.51,17.54,0.000946666,0.00067291,0,0,0.000964589,0.000715303,0.000987652,0.000733095,0,0,0.00977879,0.000859427,0.00061078
6300,4731.16,19.52,17.63,0.00103954,0.000742385,0,0,0.00107473,0.000794706,0.00110568,0.00082809,0,0,0.0107793,0.0010218,0.00081945
6400,4800.41,19.58,17.61,0.0010253,0.000722264,0,0,0.0010441,0.000775409,0.00106621,0.000791563,0,0,0.0104695,0.000983428,0.00083024
6500,4875.04,19.43,17.57,0.00115287,0.000814572,0,0,0.00119409,0.000869332,0.0012133,0.000891233,0,0,0.0118915,0.00118254,0.00127537
6600,4951.78,19.58,17.57,0.00108245,0.000761644,0,0,0.00107825,0.000807869,0.00111184,0.000825248,0,0,0.0110176,0.00103465,0.00080347
6700,5020.6,19.76,17.76,0.00102341,0.000733272,0,0,0.0010645,0.000790581,0.00108788,0.000800507,0,0,0.0107295,0.000944026,0.00064294
6800,5101.91,19.73,17.68,0.00104803,0.000740057,0,0,0.00106599,0.000791518,0.00110101,0.000811051,0,0,0.0108686,0.000959079,0.00061974
6900,5179.33,19.5,17.77,0.00104574,0.000746939,0,0,0.00107454,0.000794309,0.00109345,0.000806208,0,0,0.0107517,0.000954955,0.0005685
7000,5247.51,19.78,17.89,0.00107474,0.000754319,0,0,0.00109034,0.00080988,0.00112595,0.000825063,0,0,0.0110756,0.000960432,0.00062039
7100,5322.2,19.85,18.09,0.0010726,0.000769685,0,0,0.00111105,0.000825025,0.00113408,0.00083621,0,0,0.0112063,0.000978616,0.00072278
7200,5402.63,19.56,17.69,0.00110767,0.00079704,0,0,0.00114306,0.000840825,0.00115542,0.000862995,0,0,0.0115494,0.00101804,0.00065782
7300,5471.98,19.86,17.94,0.0011738,0.000826207,0,0,0.001212,0.000878365,0.00120708,0.000910844,0,0,0.0122322,0.00115341,0.00071008
7400,5553.99,19.81,17.76,0.00116932,0.000838203,0,0,0.0012042,0.000883683,0.00123644,0.0009055,0,0,0.0122288,0.00113683,0.00072079
7500,5623.5,20.08,18.08,0.00114808,0.000812478,0,0,0.00116408,0.000868381,0.00119302,0.000881142,0,0,0.011828,0.00105316,0.00066736
7600,5703.98,19.79,17.78,0.00122157,0.000862348,0,0,0.0012521,0.000918453,0.00128696,0.000921786,0,0,0.0124425,0.00120459,0.00080234
7700,5771.12,19.68,17.65,0.00126729,0.000888628,0,0,0.0013069,0.000952543,0.00134473,0.000961846,0,0,0.0128698,0.00131971,0.00099545
7800,5843.1,20.06,17.99,0.00122892,0.000871383,0,0,0.00126822,0.000909183,0.00127531,0.000948659,0,0,0.0126972,0.00125694,0.00083306
7900,5923.09,19.99,18.14,0.00126167,0.000895497,0,0,0.00131101,0.000960075,0.0013313,0.000977687,0,0,0.0132634,0.00127355,0.00080852
8000,6005.38,20.06,18.05,0.00132188,0.000915475,0,0,0.00134636,0.000981381,0.00138738,0.00100588,0,0,0.013569,0.00142374,0.00091031
8100,6071.75,20.18,18.28,0.00139319,0.000943509,0,0,0.00142439,0.000992651,0.00141871,0.00101908,0,0,0.0140363,0.0015256,0.00105043
8200,6151.55,20.19,18.25,0.00135339,0.000947186,0,0,0.00138454,0.00101477,0.00140156,0.0010168,0,0,0.0137253,0.00135828,0.00088935
8300,6221.79,20.2,18.1,0.00136639,0.00095158,0,0,0.00138243,0.00102013,0.00140823,0.00104292,0,0,0.0139008,0.00138654,0.00094354
8400,6295.36,20.21,18.23,0.00139895,0.000973253,0,0,0.0014479,0.00105348,0.00149173,0.00104599,0,0,0.0142704,0.00156178,0.00109904
8500,6372.17,20.46,18.35,0.00146175,0.00100967,0,0,0.0014941,0.00106258,0.0015247,0.0010737,0,0,0.0147036,0.00182051,0.00114246
8600,6451.07,19.99,18.16,0.00135218,0.000960062,0,0,0.00140814,0.00102122,0.00141693,0.00104553,0,0,0.0137638,0.00138545,0.00086644
8700,6516.99,20.49,18.5,0.00138158,0.000985005,0,0,0.00144909,0.0010467,0.00145305,0.00105205,0,0,0.014228,0.00140591,0.00096139
8800,6601.09,20.14,18.21,0.00144031,0.00100986,0,0,0.00149134,0.00110846,0.00151627,0.00110025,0,0,0.0147927,0.00151743,0.00107687
8900,6671.58,20.34,18.24,0.00144865,0.00100988,0,0,0.00148424,0.00108963,0.00150626,0.00108281,0,0,0.0147153,0.0015049,0.00098037
9000,6749.49,20.73,18.81,0.00145103,0.00101139,0,0,0.00148684,0.0010901,0.00150149,0.00109499,0,0,0.0146213,0.00147824,0.00082675
9100,6826.34,20.3,18.51,0.00143415,0.00101165,0,0,0.00146473,0.00106992,0.00150681,0.00109125,0,0,0.0145356,0.00144958,0.0007688
9200,6906.19,20.73,18.61,0.00143803,0.0010335,0,0,0.00147939,0.00109915,0.00151985,0.00110645,0,0,0.0149539,0.00149366,0.00087001
9300,6967.76,20.4,18.6,0.001445,0.00103179,0,0,0.00148006,0.0010921,0.00151754,0.00110701,0,0,0.0148111,0.00144654,0.00070927
9400,7061.29,20.71,18.83,0.00154331,0.00105911,0,0,0.0015849,0.00116109,0.00159786,0.00114285,0,0,0.0151727,0.00155889,0.00086814
9500,7126.48,20.52,18.57,0.00168666,0.00113001,0,0,0.00168416,0.00118858,0.00172837,0.00122365,0,0,0.0162286,0.00189572,0.00107861
9600,7203.96,20.47,18.49,0.00155161,0.00108981,0,0,0.00159122,0.00115492,0.00160293,0.00116241,0,0,0.0156917,0.00155738,0.00084731
9700,7279.83,20.73,18.94,0.00173847,0.00117834,0,0,0.00178927,0.00126011,0.00182157,0.00128215,0,0,0.016577,0.00193463,0.00122281
9800,7352.23,20.39,18.54,0.00174162,0.0011623,0,0,0.00176876,0.00121731,0.00175589,0.00124698,0,0,0.0172183,0.00212723,0.00123564
9900,7430.91,20.67,18.54,0.00156584,0.00111302,0,0,0.00160231,0.00118259,0.0016538,0.0011928,0,0,0.0158553,0.00158198,0.0008875
10000,7502,20.78,18.69,0.00155152,0.0010981,0,0,0.00159912,0.00120593,0.00168344,0.00122597,0,0,0.0159863,0.00156271,0.0008209
