"Node count","Average node count after compression","Average height of a tree","Average height after compression","Average DFS time","Average DFS time after compression","Average BFS time","Average BFS time after compression","Average distance calculation time","Average distance calculation time after compression","Average height calculation time","Average height calculation time after compression","Average perimeter calculation time","Average perimeter calculation time after compression","Average compression time","Average hld time","Average hld distance calculation time (ms)"
10,6.11,6.05,3.1,1.68429e-06,1.02241e-06,0,0,1.31048e-06,1.08427e-06,1.7082e-06,1.10158e-06,0,0,1.50261e-05,2.56817e-06,0.00017996
20,12.86,9.06,5.24,3.87742e-06,2.63857e-06,0,0,3.01254e-06,1.91244e-06,3.58206e-06,2.56552e-06,0,0,3.57416e-05,4.14917e-06,0.00023281
30,18.47,12.01,6.63,6.30052e-06,2.95175e-06,0,0,4.31412e-06,2.84224e-06,5.15251e-06,3.33821e-06,0,0,4.68436e-05,5.71461e-06,0.00022302
40,25.27,13.98,8.01,6.59072e-06,4.17038e-06,0,0,6.5775e-06,4.03314e-06,7.00557e-06,4.22404e-06,0,0,5.91213e-05,6.61996e-06,0.00023147
50,31.48,15.27,9.02,8.40381e-06,4.8364e-06,0,0,7.64734e-06,4.53779e-06,8.38597e-06,5.39872e-06,0,0,7.4456e-05,8.04778e-06,0.00022581
59.9999,37.45,16.81,9.7,9.51283e-06,6.06589e-06,0,0,8.81107e-06,5.99325e-06,1.02991e-05,6.34275e-06,0,0,9.46712e-05,9.69212e-06,0.0002562
70,44.02,19.31,11.06,1.17038e-05,7.73898e-06,0,0,1.0964e-05,7.34639e-06,1.23158e-05,8.16724e-06,0,0,0.000109624,1.18728e-05,0.00028851
80,50.2,20.68,11.64,1.8333e-05,1.22208e-05,0,0,1.67377e-05,1.04048e-05,1.76646e-05,1.16412e-05,0,0,0.000167832,1.66416e-05,0.00055808
90.0001,56.46,21.37,12.38,1.60304e-05,1.16669e-05,0,0,1.56187e-05,9.48067e-06,1.65106e-05,1.05709e-05,0,0,0.000151202,1.5811e-05,0.0003308
100,62.86,21.49,12.94,1.92782e-05,1.16548e-05,0,0,1.73526e-05,1.1579e-05,1.94675e-05,1.32627e-05,0,0,0.000179175,1.8616e-05,0.00041595
110,69.05,24.25,14.44,2.322e-05,1.42736e-05,0,0,2.1354e-05,1.36075e-05,2.27422e-05,1.50512e-05,0,0,0.000221464,2.12172e-05,0.00047492
120,75.92,25.34,15.06,2.07006e-05,1.297e-05,0,0,1.98328e-05,1.26565e-05,2.19263e-05,1.41809e-05,0,0,0.000202098,2.02093e-05,0.00032959
130,81.77,26.03,15.16,2.11485e-05,1.39658e-05,0,0,1.97222e-05,1.3526e-05,2.27436e-05,1.47204e-05,0,0,0.000197168,1.99998e-05,0.00029532
140,89.34,26.77,16.6,2.34737e-05,1.4324e-05,0,0,2.25912e-05,1.41169e-05,2.34418e-05,1.52542e-05,0,0,0.000220788,2.32287e-05,0.00031692
150,94.38,27.79,16.4,2.61432e-05,1.59993e-05,0,0,2.42628e-05,1.60204e-05,2.73389e-05,1.76232e-05,0,0,0.000246526,2.40788e-05,0.0003323
160,101.4,29.36,17.45,2.57647e-05,1.6568e-05,0,0,2.38928e-05,1.50107e-05,2.77051e-05,1.85321e-05,0,0,0.000248168,2.51585e-05,0.00032162
170,107.37,30.96,18.19,2.78037e-05,1.77722e-05,0,0,2.60926e-05,1.8357e-05,3.00198e-05,1.90818e-05,0,0,0.000257467,2.6727e-05,0.00033628
180,113.68,31.71,19.16,3.03884e-05,1.79001e-05,0,0,2.91034e-05,1.87791e-05,3.11791e-05,2.04117e-05,0,0,0.00027769,2.79235e-05,0.00033225
190,120.43,31.39,19.12,3.31295e-05,1.98845e-05,0,0,2.93275e-05,2.07052e-05,3.2907e-05,2.18469e-05,0,0,0.000305628,3.12575e-05,0.00038986
200,124.73,32.71,19.88,3.51085e-05,2.14851e-05,0,0,3.36935e-05,2.1283e-05,3.55941e-05,2.21933e-05,0,0,0.000314863,3.12247e-05,0.00045719
210,132.7,33.6,20,3.34557e-05,2.14309e-05,0,0,3.14219e-05,2.1398e-05,3.43806e-05,2.30483e-05,0,0,0.00031704,3.1632e-05,0.00032932
220,139.99,34.8,21.04,3.79463e-05,2.32901e-05,0,0,3.5058e-05,2.25878e-05,3.87856e-05,2.41539e-05,0,0,0.000345934,3.46786e-05,0.00035885
230,145.62,35.53,21.05,3.75212e-05,2.33333e-05,0,0,3.56575e-05,2.33802e-05,3.96066e-05,2.4861e-05,0,0,0.000350994,3.52788e-05,0.00034255
240,152.19,35.77,21.73,3.8482e-05,2.46386e-05,0,0,3.83472e-05,2.42713e-05,4.16146e-05,2.60544e-05,0,0,0.00036894,3.7028e-05,0.00035534
250,159.43,35.66,21.82,4.00951e-05,2.60513e-05,0,0,3.92733e-05,2.59003e-05,4.36143e-05,2.81054e-05,0,0,0.000379526,3.79833e-05,0.00045389
260,163.44,37.85,22.38,4.89051e-05,3.00362e-05,0,0,4.5977e-05,3.12862e-05,5.03999e-05,3.28562e-05,0,0,0.000459276,5.43748e-05,0.00049066
270,170.12,39.82,23.86,4.34849e-05,2.70052e-05,0,0,4.09582e-05,2.71372e-05,4.63195e-05,3.0409e-05,0,0,0.000417646,5.07313e-05,0.00041903
280,177.46,37.98,22.81,4.88413e-05,3.01082e-05,0,0,4.46064e-05,3.0603e-05,5.00431e-05,3.32576e-05,0,0,0.00043942,5.32406e-05,0.00039238
290,183.03,40.04,24.06,4.75756e-05,3.00561e-05,0,0,4.63367e-05,2.89584e-05,4.92663e-05,3.22307e-05,0,0,0.000434541,5.40575e-05,0.00036662
300,189.09,42.24,25.57,4.75185e-05,2.98234e-05,0,0,4.77037e-05,2.93657e-05,5.13058e-05,3.19423e-05,0,0,0.000442334,5.40865e-05,0.0004769
310,196.03,40.3,24.34,5.0003e-05,3.0661e-05,0,0,4.85263e-05,3.07606e-05,5.29448e-05,3.29883e-05,0,0,0.000447558,5.5717e-05,0.00033236
320,201.52,42.16,25.38,5.48653e-05,3.39837e-05,0,0,4.87746e-05,3.18128e-05,5.6332e-05,3.56532e-05,0,0,0.000491379,6.0098e-05,0.00039866
330,208.61,42.15,25.37,5.93559e-05,3.64219e-05,0,0,5.77892e-05,3.74791e-05,6.10688e-05,3.8286e-05,0,0,0.000553062,6.55481e-05,0.00045244
340,217.17,42.6,26.1,5.48079e-05,3.4106e-05,0,0,5.2798e-05,3.49369e-05,5.70228e-05,3.75525e-05,0,0,0.000516841,6.29305e-05,0.00036324
350,219.62,42.71,26.04,5.90926e-05,3.67747e-05,0,0,5.80541e-05,3.66592e-05,5.99089e-05,3.82431e-05,0,0,0.000527411,6.61051e-05,0.00041317
360,227.52,43.56,26.35,6.28258e-05,3.87019e-05,0,0,6.29033e-05,3.91723e-05,6.48461e-05,4.23292e-05,0,0,0.000542247,6.87768e-05,0.00043748
370,231.94,47,27.94,6.77294e-05,4.17348e-05,0,0,6.47272e-05,4.40721e-05,7.02065e-05,4.74992e-05,0,0,0.000613625,7.60911e-05,0.0005142
380,239.45,46.32,28.51,6.21707e-05,3.90309e-05,0,0,6.16606e-05,3.89429e-05,6.49751e-05,4.16827e-05,0,0,0.000573899,6.92865e-05,0.00058507
390,246.4,46.62,28.5,6.69388e-05,4.28206e-05,0,0,6.46821e-05,4.05412e-05,6.97846e-05,4.57532e-05,0,0,0.000637331,7.59304e-05,0.00046192
400,253.93,47.49,28.94,6.73264e-05,4.11245e-05,0,0,6.40261e-05,4.30958e-05,6.8233e-05,4.39756e-05,0,0,0.000611078,7.33171e-05,0.00039903
410,259.87,47.81,29.08,6.95408e-05,4.35112e-05,0,0,6.54496e-05,4.33672e-05,7.13306e-05,4.5685e-05,0,0,0.000646153,7.61776e-05,0.00043218
420,264.98,49.76,30.08,7.0424e-05,4.49795e-05,0,0,6.88907e-05,4.47963e-05,7.47381e-05,4.69974e-05,0,0,0.000656838,7.994e-05,0.00045342
430,271.7,51.77,30.75,6.84385e-05,4.38393e-05,0,0,7.05943e-05,4.42613e-05,7.28841e-05,4.69674e-05,0,0,0.000658619,7.96497e-05,0.00049621
440,277.87,49.88,30.47,6.82187e-05,4.37593e-05,0,0,6.7063e-05,4.42437e-05,7.4104e-05,4.70937e-05,0,0,0.000640661,7.83673e-05,0.00038444
450,284.51,49.96,30.16,7.55287e-05,4.50686e-05,0,0,7.24272e-05,4.77841e-05,7.92311e-05,5.14671e-05,0,0,0.000697183,8.43594e-05,0.00061628
460,289.86,53.01,31.97,7.48161e-05,4.73692e-05,0,0,7.03489e-05,4.87858e-05,8.00978e-05,5.04426e-05,0,0,0.000708248,8.58482e-05,0.00039938
470,297.19,53,32.35,7.45134e-05,4.70328e-05,0,0,7.7143e-05,4.82658e-05,7.90372e-05,4.95502e-05,0,0,0.000704231,8.64128e-05,0.00039204
480,303.63,53.7,32.41,8.79521e-05,5.36093e-05,0,0,8.53383e-05,5.76705e-05,8.94212e-05,5.83751e-05,0,0,0.000814494,9.73408e-05,0.00056467
490,308.46,53.36,32.35,8.04028e-05,4.93571e-05,0,0,8.24308e-05,5.10262e-05,8.84033e-05,5.47052e-05,0,0,0.000756008,9.10841e-05,0.00041476
500,315.61,53.82,32.12,8.40484e-05,5.21044e-05,0,0,8.47246e-05,5.43353e-05,8.58356e-05,5.4502e-05,0,0,0.000780085,9.619e-05,0.00044754
510,320.58,54.89,33.27,8.09527e-05,5.24703e-05,0,0,8.82024e-05,5.58827e-05,8.82381e-05,5.86975e-05,0,0,0.000751917,9.34091e-05,0.00050731
520,329.15,55.09,33.14,8.58656e-05,5.27463e-05,0,0,7.81462e-05,5.3553e-05,8.83728e-05,5.44399e-05,0,0,0.000785081,9.66566e-05,0.00038925
530,335.39,55.71,34.02,8.21518e-05,5.19883e-05,0,0,8.18121e-05,5.43333e-05,9.04553e-05,5.67329e-05,0,0,0.000763692,9.52985e-05,0.00037712
540,340.9,55.64,34.32,8.2056e-05,5.11025e-05,0,0,7.87221e-05,5.24953e-05,8.63265e-05,5.55899e-05,0,0,0.000757607,9.33876e-05,0.00033114
550,346.62,54.68,33.26,8.58748e-05,5.39519e-05,0,0,8.58182e-05,5.38727e-05,9.12714e-05,5.70264e-05,0,0,0.000804082,9.64938e-05,0.00037696
560,355.46,56.79,35.05,8.43533e-05,5.38922e-05,0,0,8.4794e-05,5.4519e-05,9.18508e-05,5.92336e-05,0,0,0.00079714,9.72151e-05,0.00034343
570.001,360.19,57.75,35.02,8.68568e-05,5.4235e-05,0,0,8.75362e-05,5.65452e-05,9.26675e-05,5.86584e-05,0,0,0.000795921,9.73021e-05,0.00050992
579.999,367.21,58.02,35.89,8.9608e-05,5.55236e-05,0,0,8.56175e-05,5.66167e-05,9.27882e-05,5.8297e-05,0,0,0.000801249,9.88075e-05,0.00035588
590,373.25,61.99,37.56,9.44221e-05,5.81465e-05,0,0,9.328e-05,5.94598e-05,0.00010036,6.35188e-05,0,0,0.000861914,0.000105886,0.00037658
600,378.09,58.41,35.59,9.25858e-05,5.65961e-05,0,0,8.87607e-05,5.75891e-05,9.78713e-05,6.2313e-05,0,0,0.000830499,0.000102537,0.00034783
610,383.25,59.87,36.81,9.35144e-05,5.85571e-05,0,0,8.98672e-05,5.78573e-05,9.76427e-05,6.12975e-05,0,0,0.000845959,0.000103504,0.00035126
620.001,392.42,60.32,36.43,9.58631e-05,5.92622e-05,0,0,9.13078e-05,5.97339e-05,0.000100923,6.43025e-05,0,0,0.000855817,0.000105154,0.00033181
629.999,398.37,62.07,38.17,9.69269e-05,6.11461e-05,0,0,9.41771e-05,6.19254e-05,0.000102087,6.42131e-05,0,0,0.000873253,0.000106215,0.00034292
640,404.59,60.86,37.05,9.66664e-05,6.03293e-05,0,0,9.51096e-05,5.97771e-05,0.000101069,6.50825e-05,0,0,0.000872475,0.000107344,0.00034238
650,411.04,61.32,37.38,9.76263e-05,6.1007e-05,0,0,9.40145e-05,6.44803e-05,0.000103833,6.54255e-05,0,0,0.000894374,0.000109649,0.00035358
660,415.79,60.18,36.46,9.94348e-05,6.29116e-05,0,0,0.000100975,6.3861e-05,0.000106538,6.74946e-05,0,0,0.000911431,0.000110061,0.00047057
670.001,423.23,61.62,37.7,0.000102255,6.40475e-05,0,0,0.000101925,6.48627e-05,0.00010916,6.81018e-05,0,0,0.00092728,0.000114537,0.00035195
679.999,431.76,62.12,38.42,0.000113961,6.92123e-05,0,0,0.000110967,7.4115e-05,0.000124318,7.82853e-05,0,0,0.00101162,0.000121702,0.0005177
690,433.97,63.47,38.48,0.000113147,6.8397e-05,0,0,0.000108504,6.86943e-05,0.000118567,7.27863e-05,0,0,0.00100774,0.000124478,0.00063204
700,444.78,62.25,38.05,0.000110725,7.00152e-05,0,0,0.000113726,7.19007e-05,0.000118716,7.40153e-05,0,0,0.00101814,0.000123273,0.00040649
710,447.33,63.63,39.12,0.000120416,7.39652e-05,0,0,0.000119505,7.70836e-05,0.000124968,8.13259e-05,0,0,0.0010895,0.000133297,0.00047741
720.001,454.22,65.02,38.96,0.000115997,7.04999e-05,0,0,0.000111129,7.47374e-05,0.000119774,7.54703e-05,0,0,0.00101502,0.000125997,0.00042702
729.999,463.47,67.4,40.9,0.000113593,7.04677e-05,0,0,0.000112732,7.50204e-05,0.00012102,7.68228e-05,0,0,0.00101182,0.000128092,0.00038247
740,466.76,65.87,39.98,0.000115115,7.10782e-05,0,0,0.000115247,7.11995e-05,0.000120536,7.73923e-05,0,0,0.00102288,0.000127217,0.00039555
750,473.92,66.76,41.12,0.000121093,7.4569e-05,0,0,0.000120524,7.66873e-05,0.000127234,8.14521e-05,0,0,0.00108216,0.000136319,0.00043427
760,479.83,66.59,40.58,0.00011835,7.3036e-05,0,0,0.000117471,7.61494e-05,0.000127732,8.19458e-05,0,0,0.00109372,0.0001334,0.00038904
770.001,486.37,67.02,41.82,0.000124412,7.54026e-05,0,0,0.000118826,7.55302e-05,0.000129289,8.45195e-05,0,0,0.00109735,0.000133246,0.00039353
779.999,496.55,67.65,41.83,0.000118159,7.44287e-05,0,0,0.000118181,7.74707e-05,0.000123943,7.89651e-05,0,0,0.00106381,0.000132361,0.00036402
790.001,500.75,68.96,42.56,0.000121674,7.76367e-05,0,0,0.000120759,7.92575e-05,0.000128454,8.22891e-05,0,0,0.00109994,0.00013684,0.00037773
800,506.23,68.87,41.45,0.000124016,7.58213e-05,0,0,0.00011662,7.89944e-05,0.000129908,8.32518e-05,0,0,0.00111624,0.000138788,0.00038555
809.999,510.54,70.73,43.26,0.000122452,7.49829e-05,0,0,0.000121901,7.66424e-05,0.000127116,8.11714e-05,0,0,0.00110292,0.000135264,0.0003575
820.001,518.31,68.35,41.6,0.000124372,7.73219e-05,0,0,0.00011993,8.23938e-05,0.000136191,8.4039e-05,0,0,0.00114502,0.000139155,0.00036339
829.999,524.06,72.24,43.75,0.000127545,8.02308e-05,0,0,0.000122937,8.10851e-05,0.000133465,8.5366e-05,0,0,0.0011626,0.000139952,0.00036837
840.001,528.41,73.39,45.14,0.000130727,8.05781e-05,0,0,0.000131045,8.17018e-05,0.000137097,8.69498e-05,0,0,0.00119182,0.000145068,0.00039201
850,536.97,68.42,42.29,0.000129961,8.09301e-05,0,0,0.000127579,8.54734e-05,0.000138368,8.69479e-05,0,0,0.00119702,0.000146146,0.00039681
859.999,541.82,73.14,44.65,0.0001322,8.09535e-05,0,0,0.000132289,8.32059e-05,0.000140903,8.86613e-05,0,0,0.0012252,0.000149121,0.00048171
870.001,549.81,74.7,45.81,0.000132089,8.13383e-05,0,0,0.000133238,8.20743e-05,0.000138175,8.79364e-05,0,0,0.00122974,0.000145306,0.00037455
879.999,554.5,71.82,44.3,0.000134496,8.41228e-05,0,0,0.000134148,8.80529e-05,0.000140152,9.04497e-05,0,0,0.00123488,0.000146617,0.00035896
890.001,560.54,72.43,44.01,0.000133847,8.46898e-05,0,0,0.000133117,8.75585e-05,0.000142115,9.01151e-05,0,0,0.00124487,0.000151387,0.00036431
900,568.13,74.53,45.77,0.000141051,8.62896e-05,0,0,0.000138691,8.93528e-05,0.00014705,9.43928e-05,0,0,0.00129853,0.00015564,0.00052178
909.999,575.49,74.05,45.15,0.000138701,8.50838e-05,0,0,0.000135995,8.843e-05,0.000145032,9.20037e-05,0,0,0.00127548,0.000153434,0.00038435
920.001,580.33,72.15,44.7,0.000139966,8.73531e-05,0,0,0.000138012,8.90446e-05,0.000148501,9.42256e-05,0,0,0.00128331,0.000152464,0.00037395
929.999,586.74,76.45,46.77,0.000152128,9.3634e-05,0,0,0.000145365,9.87504e-05,0.000157125,9.96025e-05,0,0,0.00139164,0.000164421,0.0005229
940.001,595.79,71.43,44.53,0.00014495,9.0221e-05,0,0,0.000145175,9.24588e-05,0.000152231,9.91831e-05,0,0,0.00133233,0.000160579,0.0003866
950,599.45,74.33,45.39,0.00014639,8.84944e-05,0,0,0.000146255,9.38254e-05,0.000152662,9.79884e-05,0,0,0.00133535,0.00016036,0.00037273
959.999,607.67,73.4,45.16,0.00015515,9.71244e-05,0,0,0.000155354,0.000101087,0.00016272,0.000105285,0,0,0.00142872,0.000171082,0.00046511
970.001,612.17,77.17,46.75,0.00015528,9.59269e-05,0,0,0.00015504,9.76859e-05,0.000162864,0.000105668,0,0,0.00143904,0.000176783,0.00044643
979.999,619.92,74.12,45.4,0.000147203,9.24691e-05,0,0,0.000145863,9.44338e-05,0.000156323,9.7713e-05,0,0,0.00134315,0.000162684,0.00038424
990.001,628.07,76.52,47.03,0.00015579,9.55148e-05,0,0,0.00015334,0.000100081,0.000160854,0.000102161,0,0,0.00140013,0.00017093,0.00042531
1000,630.39,74.44,45.8,0.00015409,9.50291e-05,0,0,0.000152294,9.71409e-05,0.000164096,0.000100869,0,0,0.00140344,0.000169736,0.00040415
